# The data in this file represent the relationship between the GOES long (1-8 angstroms) flux and the isothermal temperature of the solar soft X-ray-emitting plasma assuming photospheric abundances as modelled by CHIANTI.
# The data in this file were obtained on 2021-05-27.
#
log10temp_MK;longfulxGOES16_1;longfulxGOES16_2;longfulxGOES17_1;longfulxGOES17_2
0.0;5.099138797959313e-05;5.1789316785288975e-05;5.4635693231830373e-05;5.442965266411193e-05
0.02;8.838179201120511e-05;8.96941710379906e-05;9.439902351005003e-05;9.400543785886839e-05
0.04;0.0001507587730884552;0.00015288138820324093;0.00016053202853072435;0.00015980098396539688
0.06;0.0002524068986531347;0.00025577915948815644;0.0002680028846953064;0.0002666858199518174
0.08;0.000413918198319152;0.00041917560156434774;0.00043834352982230484;0.00043604421080090106
0.1;0.0006645547691732645;0.0006725962157361209;0.0007020884659141302;0.0006981932674534619
0.12;0.0010447654640302062;0.0010568341240286827;0.0011013641487807035;0.001094949315302074
0.14;0.001610474893823266;0.0016282621072605252;0.0016942996298894286;0.0016839986201375723
0.16;0.002438252093270421;0.002464024582877755;0.0025603282265365124;0.002544150222092867
0.18;0.0036320649087429047;0.003668816527351737;0.003807090688496828;0.0037821705918759108
0.2;0.005332683213055134;0.005384319461882114;0.005580035038292408;0.005542289931327105
0.22;0.007728508207947016;0.0078000640496611595;0.0080734733492136;0.008017146959900856
0.24;0.01106941606849432;0.011167322285473347;0.011544713750481606;0.011461785063147545
0.26;0.01567787304520607;0.015810269862413406;0.0163254477083683;0.016204925253987312
0.28;0.021955376490950584;0.022132430225610733;0.022828275337815285;0.022655434906482697
0.3;0.030390756204724312;0.030624987557530403;0.031555090099573135;0.03131059557199478
0.32;0.04154575616121292;0.04185222089290619;0.04308193922042847;0.042741093784570694
0.34;0.05605316907167435;0.05644951015710831;0.05805667117238045;0.057588595896959305
0.36;0.07459156215190887;0.07509776949882507;0.07717230170965195;0.0765393078327179
0.38;0.09787148237228394;0.09850955009460449;0.10115262866020203;0.10030968487262726
0.4;0.1266443282365799;0.12743796408176422;0.13076157867908478;0.12965570390224457
0.42;0.16168157756328583;0.1626557856798172;0.1667814403772354;0.16535130143165588
0.44;0.2038354128599167;0.20501652359962463;0.21007610857486725;0.20825110375881195
0.46;0.25402548909187317;0.25544098019599915;0.26157674193382263;0.2592761516571045
0.48;0.3132498562335968;0.31492841243743896;0.32229357957839966;0.31942564249038696
0.5;0.3826441168785095;0.38461580872535706;0.3933761715888977;0.3898366689682007
0.52;0.46343910694122314;0.4657350182533264;0.4760686755180359;0.47173959016799927
0.54;0.5570068955421448;0.5596594214439392;0.5717582106590271;0.5665061473846436
0.56;0.6648305654525757;0.6678723692893982;0.6819401979446411;0.6756147742271423
0.58;0.7884393930435181;0.7919028997421265;0.8081539869308472;0.8005869388580322
0.6;0.9293579459190369;0.9332745671272278;0.9519311189651489;0.9429359436035156
0.62;1.0890005826950073;1.0933984518051147;1.1146833896636963;1.1040557622909546
0.64;1.2687994241714478;1.2737045288085938;1.2978436946868896;1.2853615283966064
0.66;1.4699674844741821;1.475400686264038;1.5026144981384277;1.4880391359329224
0.68;1.6936684846878052;1.6996461153030396;1.730149269104004;1.7132267951965332
0.7000000000000001;1.941075086593628;1.947609782218933;1.9816136360168457;1.9620745182037354
0.72;2.2130281925201416;2.220125675201416;2.257827043533325;2.23538875579834
0.74;2.510747194290161;2.5184106826782227;2.5600054264068604;2.534370183944702
0.76;2.834991931915283;2.8432183265686035;2.888888359069824;2.8597464561462402
0.78;3.186513900756836;3.1952946186065674;3.245209217071533;3.2122395038604736
0.8;3.5661063194274902;3.5754284858703613;3.6297473907470703;3.5926172733306885
0.8200000000000001;3.9736063480377197;3.983447790145874;4.042298793792725;4.000673294067383
0.84;4.409757614135742;4.420094013214111;4.48360013961792;4.4371337890625
0.86;4.873996734619141;4.884795188903809;4.95304536819458;4.901395320892334
0.88;5.366113185882568;5.377335548400879;5.450397491455078;5.393219947814941
0.9;5.88642692565918;5.898035049438477;5.975973606109619;5.9129204750061035
0.92;6.433369159698486;6.445315361022949;6.528151512145996;6.458888530731201
0.9400000000000001;7.007784366607666;7.020026206970215;7.107799053192139;7.031984329223633
0.96;7.608231544494629;7.620721817016602;7.713437080383301;7.630741596221924
0.98;8.234121322631836;8.246809005737305;8.344457626342773;8.254559516906738
1.0;8.88566780090332;8.898503303527832;9.001076698303223;8.90364933013916
1.02;9.558849334716797;9.571759223937988;9.679152488708496;9.573909759521484
1.04;10.253776550292969;10.266685485839844;10.3787841796875;10.265433311462402
1.06;10.964973449707031;10.977774620056152;11.094330787658691;10.972633361816406
1.08;11.688370704650879;11.700933456420898;11.821606636047363;11.69135856628418
1.1;12.422637939453125;12.434823989868164;12.559240341186523;12.42025089263916
1.12;13.160225868225098;13.171867370605469;13.299516677856445;13.151673316955566
1.1400000000000001;13.90315055847168;13.91409969329834;14.04455280303955;13.887724876403809
1.16;14.648797035217285;14.658910751342773;14.791742324829102;14.625837326049805
1.18;15.397286415100098;15.406439781188965;15.541284561157227;15.366214752197266
1.2;16.153182983398438;16.16128158569336;16.29789924621582;16.11353874206543
1.22;16.915964126586914;16.922922134399414;17.061113357543945;16.867347717285156
1.24;17.691024780273438;17.69678497314453;17.836450576782227;17.633113861083984
1.26;18.48056983947754;18.485082626342773;18.626184463500977;18.413087844848633
1.28;19.287349700927734;19.290576934814453;19.433122634887695;19.210052490234375
1.3;20.115922927856445;20.11783218383789;20.261882781982422;20.028575897216797
1.32;20.96738052368164;20.967945098876953;21.11358070373535;20.869760513305664
1.34;21.84589195251465;21.8450870513916;21.992422103881836;21.737764358520508
1.36;22.75298309326172;22.750782012939453;22.89994239807129;22.63410758972168
1.3800000000000001;23.69002914428711;23.6864070892334;23.837526321411133;23.560155868530273
1.4000000000000001;24.658767700195312;24.653696060180664;24.806913375854492;24.517627716064453
1.42;25.65866470336914;25.652116775512695;25.80756378173828;25.50598907470703
1.44;26.690441131591797;26.682384490966797;26.84018898010254;26.525943756103516
1.46;27.75324821472168;27.743654251098633;27.9039363861084;27.57664680480957
1.48;28.845684051513672;28.83452033996582;28.997390747070312;28.656700134277344
1.5;29.966630935668945;29.95386505126953;30.119422912597656;29.764986038208008
1.52;31.113187789916992;31.098787307739258;31.267120361328125;30.89862632751465
1.54;32.28333282470703;32.26727294921875;32.43844985961914;32.05561447143555
1.56;33.473724365234375;33.45597457885742;33.63005828857422;33.232627868652344
1.58;34.68111038208008;34.661643981933594;34.83867263793945;34.426448822021484
1.6;35.90266036987305;35.88145065307617;36.06146240234375;35.63426208496094
1.62;37.13430404663086;37.1113395690918;37.29434585571289;36.85205078125
1.6400000000000001;38.37244415283203;38.34770202636719;38.533714294433594;38.07623291015625
1.6600000000000001;39.61231994628906;39.58579635620117;39.77479934692383;39.3021125793457
1.68;40.849769592285156;40.82145309448242;41.01342010498047;40.52555465698242
1.7;42.08131408691406;42.051204681396484;42.24610137939453;41.74312973022461
1.72;43.30219650268555;43.27029800415039;43.468082427978516;42.95011901855469
1.74;44.50885772705078;44.47517776489258;44.67578887939453;44.14301300048828
1.76;45.69644546508789;45.66100311279297;45.86437225341797;45.3170051574707
1.78;46.860809326171875;46.8236198425293;47.029666900634766;46.46799087524414
1.8;47.998748779296875;47.9598388671875;48.16847610473633;47.59280776977539
1.82;49.10490417480469;49.064308166503906;49.27543258666992;48.6861572265625
1.84;50.178497314453125;50.13624954223633;50.34975814819336;49.74727249145508
1.86;51.21626281738281;51.172393798828125;51.38818359375;50.77291488647461
1.8800000000000001;52.21609878540039;52.170658111572266;52.38861083984375;51.76102066040039
1.9000000000000001;53.177181243896484;53.13021469116211;53.35021209716797;52.71076965332031
1.92;54.09718322753906;54.048736572265625;54.27065658569336;53.61986541748047
1.94;54.97651290893555;54.9266357421875;55.150360107421875;54.48870849609375
1.96;55.81415939331055;55.762901306152344;55.988304138183594;55.316307067871094
1.98;56.61042022705078;56.55783462524414;56.78479766845703;56.10295104980469
2.0;57.36692810058594;57.31305694580078;57.54146194458008;56.850250244140625
